 time_fs              norm                 autocorr             dpx                  dpy                  dpz                  energy              
 0.0000000000000000  1.0000000000000000  1.0000000000000000  0.0000000000000002  0.0000000000000002  0.0000000000000002  -7.2363863106210236 
 0.0100000000000000  1.0000000000002185  1.0000000000001092  0.0000000000146571  0.0000000000146571  0.0000000000146571  -7.2363863106226036 
 0.0200000000000000  1.0000000000004352  1.0000000000002176  0.0000000004025279  0.0000000004025279  0.0000000004025279  -7.2363863106241739 
 0.0300000000000001  1.0000000000006528  1.0000000000003264  0.0000000024144169  0.0000000024144169  0.0000000024144169  -7.2363863106257469 
 0.0400000000000003  1.0000000000008691  1.0000000000004345  0.0000000078528916  0.0000000078528916  0.0000000078528916  -7.2363863106273119 
 0.0500000000000005  1.0000000000010860  1.0000000000005427  0.0000000184385341  0.0000000184385341  0.0000000184385341  -7.2363863106288804 
 0.0600000000000007  1.0000000000013045  1.0000000000006515  0.0000000352554289  0.0000000352554289  0.0000000352554289  -7.2363863106304596 
 0.0700000000000009  1.0000000000015243  1.0000000000007603  0.0000000589084842  0.0000000589084842  0.0000000589084842  -7.2363863106320450 
 0.0800000000000011  1.0000000000017473  1.0000000000008695  0.0000000901355657  0.0000000901355657  0.0000000901355657  -7.2363863106336463 
 0.0900000000000013  1.0000000000019704  1.0000000000009766  0.0000001298673619  0.0000001298673619  0.0000001298673619  -7.2363863106352344 
 0.1000000000000011  1.0000000000021922  1.0000000000010802  0.0000001793704110  0.0000001793704110  0.0000001793704110  -7.2363863106367985 
 0.1100000000000002  1.0000000000024178  1.0000000000011808  0.0000002401681552  0.0000002401681552  0.0000002401681552  -7.2363863106383635 
 0.1199999999999994  1.0000000000026383  1.0000000000012716  0.0000003135372299  0.0000003135372299  0.0000003135372299  -7.2363863106398520 
 0.1299999999999985  1.0000000000028650  1.0000000000013554  0.0000004004022648  0.0000004004022648  0.0000004004022648  -7.2363863106413291 
 0.1399999999999976  1.0000000000030940  1.0000000000014269  0.0000005013420059  0.0000005013420059  0.0000005013420059  -7.2363863106427466 
 0.1499999999999967  1.0000000000033198  1.0000000000014790  0.0000006169644028  0.0000006169644028  0.0000006169644028  -7.2363863106440434 
 0.1599999999999959  1.0000000000035454  1.0000000000015079  0.0000007482886003  0.0000007482886003  0.0000007482886003  -7.2363863106452087 
 0.1699999999999950  1.0000000000037277  1.0000000000014853  0.0000008964243882  0.0000008964243882  0.0000008964243882  -7.2363863106458943 
 0.1799999999999941  1.0000000000039106  1.0000000000014249  0.0000010624905000  0.0000010624905000  0.0000010624905000  -7.2363863106463793 
 0.1899999999999932  1.0000000000041021  1.0000000000013212  0.0000012475322897  0.0000012475322897  0.0000012475322897  -7.2363863106466582 
 0.1999999999999924  1.0000000000043003  1.0000000000011631  0.0000014522476381  0.0000014522476381  0.0000014522476381  -7.2363863106466635 
 0.2099999999999915  1.0000000000045075  1.0000000000009397  0.0000016770993378  0.0000016770993378  0.0000016770993378  -7.2363863106463500 
 0.2199999999999906  1.0000000000047227  1.0000000000006373  0.0000019224230667  0.0000019224230667  0.0000019224230667  -7.2363863106456305 
 0.2299999999999898  1.0000000000049503  1.0000000000002434  0.0000021888470366  0.0000021888470366  0.0000021888470366  -7.2363863106444590 
 0.2399999999999889  1.0000000000051312  0.9999999999997098  0.0000024774905066  0.0000024774905066  0.0000024774905066  -7.2363863106423034 
 0.2499999999999880  1.0000000000053095  0.9999999999990382  0.0000027893079060  0.0000027893079060  0.0000027893079060  -7.2363863106393733 
 0.2599999999999871  1.0000000000055083  0.9999999999982191  0.0000031248240801  0.0000031248240801  0.0000031248240801  -7.2363863106357158 
 0.2699999999999863  1.0000000000056990  0.9999999999972156  0.0000034842526748  0.0000034842526748  0.0000034842526748  -7.2363863106310014 
 0.2799999999999854  1.0000000000058988  0.9999999999960120  0.0000038677245035  0.0000038677245035  0.0000038677245035  -7.2363863106252140 
 0.2899999999999845  1.0000000000060869  0.9999999999945717  0.0000042755977850  0.0000042755977850  0.0000042755977850  -7.2363863106180615 
 0.2999999999999836  1.0000000000062828  0.9999999999928748  0.0000047082616440  0.0000047082616440  0.0000047082616440  -7.2363863106095181 
 0.3099999999999828  1.0000000000064837  0.9999999999908876  0.0000051662030104  0.0000051662030104  0.0000051662030104  -7.2363863105993866 
 0.3199999999999819  1.0000000000066718  0.9999999999885657  0.0000056500897398  0.0000056500897398  0.0000056500897398  -7.2363863105873438 
 0.3299999999999810  1.0000000000068670  0.9999999999858828  0.0000061602280774  0.0000061602280774  0.0000061602280774  -7.2363863105733328 
 0.3399999999999802  1.0000000000070646  0.9999999999828014  0.0000066964217606  0.0000066964217606  0.0000066964217606  -7.2363863105571209 
 0.3499999999999793  1.0000000000072591  0.9999999999792839  0.0000072582224217  0.0000072582224217  0.0000072582224217  -7.2363863105384745 
 0.3599999999999784  1.0000000000074654  0.9999999999752986  0.0000078454460831  0.0000078454460831  0.0000078454460831  -7.2363863105172808 
 0.3699999999999775  1.0000000000076601  0.9999999999707894  0.0000084585330907  0.0000084585330907  0.0000084585330907  -7.2363863104931268 
 0.3799999999999766  1.0000000000078666  0.9999999999657201  0.0000090979018007  0.0000090979018007  0.0000090979018007  -7.2363863104659210 
 0.3899999999999770  1.0000000000080715  0.9999999999600375  0.0000097634964752  0.0000097634964752  0.0000097634964752  -7.2363863104353090 
 0.3999999999999805  1.0000000000082665  0.9999999999536947  0.0000104548745865  0.0000104548745865  0.0000104548745865  -7.2363863104009951 
 0.4099999999999839  1.0000000000084595  0.9999999999466544  0.0000111713270571  0.0000111713270571  0.0000111713270571  -7.2363863103628017 
 0.4199999999999873  1.0000000000086551  0.9999999999388761  0.0000119123072690  0.0000119123072690  0.0000119123072690  -7.2363863103205182 
 0.4299999999999907  1.0000000000088574  0.9999999999303151  0.0000126775096254  0.0000126775096254  0.0000126775096254  -7.2363863102739190 
 0.4399999999999942  1.0000000000090652  0.9999999999209197  0.0000134667936243  0.0000134667936243  0.0000134667936243  -7.2363863102227155 
 0.4499999999999976  1.0000000000092699  0.9999999999106338  0.0000142801074915  0.0000142801074915  0.0000142801074915  -7.2363863101665640 
 0.4600000000000010  1.0000000000094618  0.9999999998994060  0.0000151169169472  0.0000151169169472  0.0000151169169472  -7.2363863101051340 
 0.4700000000000044  1.0000000000096638  0.9999999998872098  0.0000159761950371  0.0000159761950371  0.0000159761950371  -7.2363863100383812 
 0.4800000000000079  1.0000000000098734  0.9999999998740090  0.0000168568597334  0.0000168568597334  0.0000168568597334  -7.2363863099660835 
 0.4900000000000113  1.0000000000100786  0.9999999998597606  0.0000177579908533  0.0000177579908533  0.0000177579908533  -7.2363863098879451 
 0.5000000000000147  1.0000000000102816  0.9999999998444243  0.0000186790339367  0.0000186790339367  0.0000186790339367  -7.2363863098037591 
 0.5100000000000181  1.0000000000104894  0.9999999998279600  0.0000196194890509  0.0000196194890509  0.0000196194890509  -7.2363863097133354 
 0.5200000000000216  1.0000000000106923  0.9999999998103242  0.0000205786521652  0.0000205786521652  0.0000205786521652  -7.2363863096164094 
 0.5300000000000250  1.0000000000108997  0.9999999997914925  0.0000215555941120  0.0000215555941120  0.0000215555941120  -7.2363863095128709 
 0.5400000000000283  1.0000000000110920  0.9999999997714403  0.0000225488380347  0.0000225488380347  0.0000225488380347  -7.2363863094024943 
 0.5500000000000318  1.0000000000112790  0.9999999997501655  0.0000235566921314  0.0000235566921314  0.0000235566921314  -7.2363863092852974 
 0.5600000000000352  1.0000000000114699  0.9999999997276600  0.0000245778873128  0.0000245778873128  0.0000245778873128  -7.2363863091612837 
 0.5700000000000387  1.0000000000116618  0.9999999997038993  0.0000256116918543  0.0000256116918543  0.0000256116918543  -7.2363863090303138 
 0.5800000000000420  1.0000000000118670  0.9999999996788667  0.0000266575562476  0.0000266575562476  0.0000266575562476  -7.2363863088923530 
 0.5900000000000455  1.0000000000120575  0.9999999996525460  0.0000277142112881  0.0000277142112881  0.0000277142112881  -7.2363863087471936 
 0.6000000000000489  1.0000000000122629  0.9999999996249761  0.0000287795956016  0.0000287795956016  0.0000287795956016  -7.2363863085951774 
 0.6100000000000524  1.0000000000124607  0.9999999995961770  0.0000298517295495  0.0000298517295495  0.0000298517295495  -7.2363863084362992 
 0.6200000000000557  1.0000000000126688  0.9999999995661824  0.0000309290761745  0.0000309290761745  0.0000309290761745  -7.2363863082708235 
 0.6300000000000592  1.0000000000128810  0.9999999995350058  0.0000320105034402  0.0000320105034402  0.0000320105034402  -7.2363863080987958 
 0.6400000000000626  1.0000000000130849  0.9999999995026624  0.0000330948366297  0.0000330948366297  0.0000330948366297  -7.2363863079202631 
 0.6500000000000660  1.0000000000132980  0.9999999994691987  0.0000341804916288  0.0000341804916288  0.0000341804916288  -7.2363863077355797 
 0.6600000000000694  1.0000000000135176  0.9999999994346701  0.0000352656729768  0.0000352656729768  0.0000352656729768  -7.2363863075450308 
 0.6700000000000729  1.0000000000137366  0.9999999993991471  0.0000363483018287  0.0000363483018287  0.0000363483018287  -7.2363863073489565 
 0.6800000000000763  1.0000000000139426  0.9999999993627073  0.0000374262142433  0.0000374262142433  0.0000374262142433  -7.2363863071477272 
 0.6900000000000797  1.0000000000141434  0.9999999993254324  0.0000384976087517  0.0000384976087517  0.0000384976087517  -7.2363863069418226 
 0.7000000000000831  1.0000000000143439  0.9999999992873974  0.0000395609287433  0.0000395609287433  0.0000395609287433  -7.2363863067316991 
 0.7100000000000866  1.0000000000145295  0.9999999992486723  0.0000406146737460  0.0000406146737460  0.0000406146737460  -7.2363863065176952 
 0.7200000000000900  1.0000000000147200  0.9999999992093647  0.0000416570127098  0.0000416570127098  0.0000416570127098  -7.2363863063004983 
 0.7300000000000934  1.0000000000149054  0.9999999991695934  0.0000426856474932  0.0000426856474932  0.0000426856474932  -7.2363863060807248 
 0.7400000000000968  1.0000000000150944  0.9999999991294994  0.0000436982571944  0.0000436982571944  0.0000436982571944  -7.2363863058591651 
 0.7500000000001003  1.0000000000152869  0.9999999990892231  0.0000446925680874  0.0000446925680874  0.0000446925680874  -7.2363863056365840 
 0.7600000000001037  1.0000000000154849  0.9999999990488989  0.0000456665212636  0.0000456665212636  0.0000456665212636  -7.2363863054137552 
 0.7700000000001070  1.0000000000156957  0.9999999990086542  0.0000466184303647  0.0000466184303647  0.0000466184303647  -7.2363863051914272 
 0.7800000000001105  1.0000000000158997  0.9999999989686098  0.0000475465611549  0.0000475465611549  0.0000475465611549  -7.2363863049702051 
 0.7900000000001139  1.0000000000160896  0.9999999989289170  0.0000484488392917  0.0000484488392917  0.0000484488392917  -7.2363863047508881 
 0.8000000000001174  1.0000000000162823  0.9999999988897704  0.0000493226584044  0.0000493226584044  0.0000493226584044  -7.2363863045346140 
 0.8100000000001207  1.0000000000164779  0.9999999988513669  0.0000501652503553  0.0000501652503553  0.0000501652503553  -7.2363863043224654 
 0.8200000000001242  1.0000000000166722  0.9999999988138801  0.0000509744459789  0.0000509744459789  0.0000509744459789  -7.2363863041153760 
 0.8300000000001276  1.0000000000168723  0.9999999987774713  0.0000517484703260  0.0000517484703260  0.0000517484703260  -7.2363863039142791 
 0.8400000000001311  1.0000000000170717  0.9999999987422963  0.0000524854679960  0.0000524854679960  0.0000524854679960  -7.2363863037200389 
 0.8500000000001344  1.0000000000172720  0.9999999987085348  0.0000531832786551  0.0000531832786551  0.0000531832786551  -7.2363863035336689 
 0.8600000000001379  1.0000000000174809  0.9999999986763904  0.0000538393995694  0.0000538393995694  0.0000538393995694  -7.2363863033563360 
 0.8700000000001413  1.0000000000176954  0.9999999986460659  0.0000544513672594  0.0000544513672594  0.0000544513672594  -7.2363863031891142 
 0.8800000000001448  1.0000000000179055  0.9999999986177579  0.0000550167460755  0.0000550167460755  0.0000550167460755  -7.2363863030330275 
 0.8900000000001481  1.0000000000181273  0.9999999985916633  0.0000555331816599  0.0000555331816599  0.0000555331816599  -7.2363863028892590 
 0.9000000000001516  1.0000000000183353  0.9999999985679338  0.0000559987655265  0.0000559987655265  0.0000559987655265  -7.2363863027585555 
 0.9100000000001550  1.0000000000185472  0.9999999985467325  0.0000564117090132  0.0000564117090132  0.0000564117090132  -7.2363863026419155 
 0.9200000000001585  1.0000000000187335  0.9999999985282128  0.0000567699395216  0.0000567699395216  0.0000567699395216  -7.2363863025400619 
 0.9300000000001618  1.0000000000189315  0.9999999985125825  0.0000570709446099  0.0000570709446099  0.0000570709446099  -7.2363863024542940 
 0.9400000000001653  1.0000000000191427  0.9999999985000348  0.0000573119944270  0.0000573119944270  0.0000573119944270  -7.2363863023856831 
 0.9500000000001687  1.0000000000193394  0.9999999984907175  0.0000574908407797  0.0000574908407797  0.0000574908407797  -7.2363863023349033 
 0.9600000000001722  1.0000000000195362  0.9999999984847646  0.0000576056522650  0.0000576056522650  0.0000576056522650  -7.2363863023027681 
 0.9700000000001755  1.0000000000197407  0.9999999984822895  0.0000576546205712  0.0000576546205712  0.0000576546205712  -7.2363863022899686 
 0.9800000000001790  1.0000000000199405  0.9999999984833903  0.0000576358813883  0.0000576358813883  0.0000576358813883  -7.2363863022970207 
 0.9900000000001824  1.0000000000201372  0.9999999984881777  0.0000575472948312  0.0000575472948312  0.0000575472948312  -7.2363863023245312 
 1.0000000000001859  1.0000000000203348  0.9999999984967617  0.0000573865747591  0.0000573865747591  0.0000573865747591  -7.2363863023731110 
 1.0100000000001892  1.0000000000205358  0.9999999985092358  0.0000571514403465  0.0000571514403465  0.0000571514403465  -7.2363863024432558 
 1.0200000000001925  1.0000000000207372  0.9999999985256599  0.0000568397527873  0.0000568397527873  0.0000568397527873  -7.2363863025352986 
 1.0300000000001961  1.0000000000209253  0.9999999985460422  0.0000564499034375  0.0000564499034375  0.0000564499034375  -7.2363863026492359 
 1.0400000000001994  1.0000000000211291  0.9999999985703816  0.0000559804821699  0.0000559804821699  0.0000559804821699  -7.2363863027852089 
 1.0500000000002030  1.0000000000213367  0.9999999985986494  0.0000554298377129  0.0000554298377129  0.0000554298377129  -7.2363863029430240 
 1.0600000000002063  1.0000000000215568  0.9999999986308250  0.0000547960766290  0.0000547960766290  0.0000547960766290  -7.2363863031225923 
 1.0700000000002097  1.0000000000217673  0.9999999986668613  0.0000540770743449  0.0000540770743449  0.0000540770743449  -7.2363863033235249 
 1.0800000000002132  1.0000000000219753  0.9999999987066921  0.0000532708732861  0.0000532708732861  0.0000532708732861  -7.2363863035454639 
 1.0900000000002166  1.0000000000221783  0.9999999987501982  0.0000523758813525  0.0000523758813525  0.0000523758813525  -7.2363863037877447 
 1.1000000000002199  1.0000000000223808  0.9999999987972142  0.0000513908506168  0.0000513908506168  0.0000513908506168  -7.2363863040495113 
 1.1100000000002235  1.0000000000225833  0.9999999988475325  0.0000503149166535  0.0000503149166535  0.0000503149166535  -7.2363863043296259 
 1.1200000000002268  1.0000000000227827  0.9999999989009358  0.0000491469285033  0.0000491469285033  0.0000491469285033  -7.2363863046268575 
 1.1300000000002304  1.0000000000229707  0.9999999989572056  0.0000478850622563  0.0000478850622563  0.0000478850622563  -7.2363863049399386 
 1.1400000000002337  1.0000000000231732  0.9999999990161166  0.0000465273344689  0.0000465273344689  0.0000465273344689  -7.2363863052677155 
 1.1500000000002371  1.0000000000233764  0.9999999990773627  0.0000450722828303  0.0000450722828303  0.0000450722828303  -7.2363863056084341 
 1.1600000000002406  1.0000000000235705  0.9999999991405678  0.0000435194097499  0.0000435194097499  0.0000435194097499  -7.2363863059599725 
 1.1700000000002440  1.0000000000237645  0.9999999992053240  0.0000418684789030  0.0000418684789030  0.0000418684789030  -7.2363863063201181 
 1.1800000000002473  1.0000000000239484  0.9999999992712079  0.0000401186050096  0.0000401186050096  0.0000401186050096  -7.2363863066864971 
 1.1900000000002509  1.0000000000241418  0.9999999993377995  0.0000382684564543  0.0000382684564543  0.0000382684564543  -7.2363863070568613 
 1.2000000000002542  1.0000000000243525  0.9999999994046389  0.0000363167167345  0.0000363167167345  0.0000363167167345  -7.2363863074286670 
 1.2100000000002578  1.0000000000245659  0.9999999994712016  0.0000342625480161  0.0000342625480161  0.0000342625480161  -7.2363863077989290 
 1.2200000000002611  1.0000000000247706  0.9999999995369105  0.0000321056554661  0.0000321056554661  0.0000321056554661  -7.2363863081643949 
 1.2300000000002644  1.0000000000249814  0.9999999996011626  0.0000298458756789  0.0000298458756789  0.0000298458756789  -7.2363863085218094 
 1.2400000000002680  1.0000000000251821  0.9999999996633085  0.0000274831169123  0.0000274831169123  0.0000274831169123  -7.2363863088675071 
 1.2500000000002713  1.0000000000253755  0.9999999997226863  0.0000250170842814  0.0000250170842814  0.0000250170842814  -7.2363863091978260 
 1.2600000000002747  1.0000000000255653  0.9999999997786090  0.0000224471463911  0.0000224471463911  0.0000224471463911  -7.2363863095089567 
 1.2700000000002782  1.0000000000257643  0.9999999998303577  0.0000197728371393  0.0000197728371393  0.0000197728371393  -7.2363863097969627 
 1.2800000000002816  1.0000000000259732  0.9999999998771654  0.0000169940764085  0.0000169940764085  0.0000169940764085  -7.2363863100575863 
 1.2900000000002851  1.0000000000261724  0.9999999999182169  0.0000141112528502  0.0000141112528502  0.0000141112528502  -7.2363863102862274 
 1.3000000000002885  1.0000000000263725  0.9999999999526833  0.0000111249791156  0.0000111249791156  0.0000111249791156  -7.2363863104783430 
 1.3100000000002918  1.0000000000265614  0.9999999999797025  0.0000080356548027  0.0000080356548027  0.0000080356548027  -7.2363863106290935 
 1.3200000000002954  1.0000000000267524  0.9999999999984018  0.0000048436195534  0.0000048436195534  0.0000048436195534  -7.2363863107336961 
 1.3300000000002987  1.0000000000269378  1.0000000000078741  0.0000015491351753  0.0000015491351753  0.0000015491351753  -7.2363863107870774 
 1.3400000000003021  1.0000000000271458  1.0000000000072036  -0.0000018475453039  -0.0000018475453039  -0.0000018475453039  -7.2363863107842876 
 1.3500000000003056  1.0000000000273512  0.9999999999954257  -0.0000053457044731  -0.0000053457044731  -0.0000053457044731  -7.2363863107198600 
 1.3600000000003090  1.0000000000275526  0.9999999999715721  -0.0000089441487788  -0.0000089441487788  -0.0000089441487788  -7.2363863105884185 
 1.3700000000003123  1.0000000000277545  0.9999999999346678  -0.0000126414077269  -0.0000126414077269  -0.0000126414077269  -7.2363863103845718 
 1.3800000000003159  1.0000000000279585  0.9999999998837249  -0.0000164362269794  -0.0000164362269794  -0.0000164362269794  -7.2363863101028443 
